##TITLE=Sample description
##JCAMP-DX=4.24
##DATA TYPE=INFRARED SPECTRUM
##DATE=12/9/2023
##SAMPLING PROCEDURE=Instrument type and / or accessory
##ORIGIN=Default
##XUNITS=1/CM
##YUNITS=ABSORBANCE
##RESOLUTION=4
##FIRSTX=4397.6552
##LASTX=599.8556
##DELTAX=-1.9287962
##MAXY=1.7989596
##MINY=0.26803502
##XFACTOR=1
##YFACTOR=1.6754117e-009
##NPOINTS=1970
##FIRSTY=0.30104074
##XYDATA=(X++(Y..Y))
4398+179681650+180335219+179564943+178331465+177792256+177860722+178065605
4384+178527863+179160140+179357712+179040497+178426916+178021686+178032590
4371+178046412+178276820+178851126+179533013+179871022+179155390+178563493
4357+179399282+180613584+181128211+180461532+179078119+178505931+178747884
4344+179077443+179438736+179536090+179493630+179527143+179157952+178418769
4330+177875575+177755933+177853180+177829611+177937140+178528468+179151032
4317+179342343+179167255+178708661+178137718+178194088+179152402+179666459
4303+178861105+178035454+178287582+178808772+179140395+179639546+179734338
4290+179741614+180429193+180637705+179837207+179076447+178971124+179327010
4276+179531626+179115136+178131172+177167521+176702862+176841217+177445300
4263+178042480+178360068+178631443+179204112+179484469+178619063+177788325
4249+178461389+179446634+178949494+177724483+177353940+177610391+177694101
4236+177470950+177307656+177556173+177543383+177089894+177411538+178571764
4222+179487155+179528868+178920446+178931955+179476589+179131732+178766330
4209+179402271+179729251+179354652+179032866+178693097+178639412+179145109
4195+179237002+178807598+179060544+179768171+179350952+177854407+177091762
4182+177709737+178298095+178035810+178034494+178552535+178288774+177411876
4168+177342574+178409484+179697713+179902809+178674615+177166116+176743223
4155+177468531+177936962+177555870+177390103+177611565+177629886+177792647
4141+178254194+178564880+178511534+178144940+177690206+177125239+176260579
4128+175700024+176299286+177410382+177641858+177079577+176587844+176477594
4114+176744415+176860019+176492180+176371862+176641191+176710439+176937878
4101+177725444+178388601+178179342+177459975+177286808+177646696+177488685
4087+176692616+175799762+174965644+174848955+175978817+177123051+177058143
4074+176618226+176653340+176706366+176774103+177095942+177140982+176707807
4060+176413628+176620699+176782303+176340003+175590041+175110546+174855963
4047+174719066+174989249+175546513+176210239+176465089+175639296+174507869
4033+174049577+174527507+175544148+175897347+175577998+175594239+175757604
4020+175541195+175502079+175985505+176354874+176258356+175819222+175398108
4006+175361731+175329855+175067659+175050991+175221276+174926493+174049524
3993+173308189+173318648+173856737+174373747+174503937+174448350+174629486
3979+174633452+174460499+174777785+175003871+174695052+174276375+173617665
3966+173113516+173557061+174427218+174490454+173775232+173576397+174160699
3952+174609332+174789614+174863825+174076668+172812008+172909149+173975365
3939+174307753+173739407+172650315+171937192+172353076+172604511+171616989
3925+171006147+171792699+172069464+171451435+171915864+173622824+174542324
3912+174232011+173419293+171285046+168092303+166913666+168388741+170612497
3898+172765724+173067214+170675912+169084521+170838459+171530165+170110660
3885+169736382+169081728+168655259+170610825+171119581+169215103+167199253
3871+166042478+167272380+168504772+168053827+169295576+171886816+172127435
3858+168607907+162074140+159981588+167155495+172822414+173661353+171422227
3844+168529924+166444399+164967528+165411340+167832312+169239437+169836368
3831+170871242+171375694+171117749+169541994+166171833+165787611+168567849
3817+169896243+171919973+173955852+173067658+170055251+168234803+168244906
3804+166941486+167376387+170899507+172188146+172662304+174189498+174959881
3790+174920943+174793456+174629788+174504026+173827511+173166756+174428890
3777+176355728+176621552+174976726+173379874+174208762+176268139+178112957
3763+178505006+176884496+176526102+178352615+178219205+174453028+171971113
3750+175829788+178663355+178549084+182710565+188028928+188562854+186197576
3736+185176880+188593557+195122379+200388356+202726703+204725583+208676293
3723+213740909+219017506+224129830+228088046+229621840+230633945+237072902
3709+248491430+259633675+268948410+278501220+291364726+304515278+313936012
3696+319723713+321324852+318560552+314791511+313019465+310916845+306399425
3682+300267846+293320506+285236331+278007815+275833011+274641692+272901842
3669+275077802+278050791+278616843+278159369+277427551+276055736+275489631
3655+276620471+275183036+270137542+268871139+274745005+280477936+282948342
3642+283409995+283130865+282335988+281358427+280301052+278140799+275802790
3628+278148074+282571626+283772018+281841142+279549755+280151116+281788187
3615+282033858+282229242+282591620+283047973+284758579+286203806+285739626
3601+284980556+285518965+286073437+285705402+285646470+285671943+284534681
3588+284693493+287692915+289973878+290337697+290028238+289552870+288891386
3574+288630506+288931925+288362031+286881940+287353715+289794503+291767626
3561+292599111+292212577+291059679+290230293+290166274+290276809+289766825
3547+289071401+289552461+291018233+291877129+291686601+291499133+291786517
3534+291698946+290911416+289970641+289058220+288075110+287513505+287717143
3520+288021318+287895984+287350157+286479894+285641223+285416328+286011232
3507+286340507+285619290+284907376+284677661+284367793+284267113+284364787
3493+283865814+282865396+282238136+282143183+281986097+281663066+281377283
3480+280830033+280025355+279328614+278779764+278581765+278927653+279449164
3466+279432781+278693723+278148216+278185642+278094105+277773404+277673898
3453+277700669+277211550+276222801+275757537+275939509+276089320+276246121
3439+276438037+276520556+276571554+276317878+275591272+274974097+274841630
3426+274881706+274787536+274502571+274338085+274498587+274462602+274091169
3412+273918269+273882711+273692895+273601108+273758924+273828920+273474030
3399+273115405+273391227+273857025+274007903+274244129+274660440+274758951
3385+274232211+273445445+273282488+274011194+274844387+275237574+275568503
3372+276052658+276372737+276532918+276704093+276738975+276776312+276998823
3358+277063732+276986674+277114268+277610092+278696853+279796476+280256244
3345+280854243+281726107+282180378+282714660+283570052+284070875+284002658
3331+283616141+283232453+283017786+283063182+283459571+283908328+283857845
3318+283407932+283279093+283334912+283013766+282812317+283099202+283376412
3304+283254279+282819894+282856342+283916670+285324204+286372259+287074567
3291+287418908+287249690+286809952+286560154+286900795+287729914+288166113
3277+287906639+287396086+287020954+287101267+287128980+286516893+286043002
3264+286405807+286983012+287231031+287236776+286960972+286465006+285967313
3250+285667176+285623826+285744091+286026370+286262933+286405380+286513798
3237+286375994+286233458+286395739+286644967+286790972+286968906+287166069
3223+287005318+286624867+286595677+286826548+287065584+287289198+287108791
3210+286617965+286376083+286076461+285328331+284422972+283815510+283870261
3196+284309555+284189077+283215109+282192865+281642663+281220339+280682926
3183+280139999+279599722+278997703+278388835+277838010+277211711+276535142
3169+275987234+275177468+274177423+273863856+273811007+273117415+272436026
3156+272453761+272674670+272529360+272005697+271355437+270731147+270156557
3142+269970156+270279153+270302953+269546622+268376773+267180295+266098656
3129+265251340+264655475+264056018+263166775+261973338+260754074+259742058
3115+258819818+257941141+257269233+256468913+255066662+253393802+251913035
3102+250601699+249311709+247986107+246791017+245819130+245035033+244394520
3088+243639453+242626120+241554835+240808021+240543761+240398575+239934947
3075+239037824+237941190+237083770+236794287+236948777+237117425+236991717
3061+236445819+235868152+235762633+235784406+235493927+235073471+234724255
3047+234504217+234386318+234191414+233908317+233647989+233230023+232372994
3034+231284187+230558078+230291685+229972140+229254409+228283591+227494832
3020+227124094+226892547+226416752+225844563+225553230+225225823+224338857
3007+223296281+222744851+222491158+222035588+221276412+220399567+219839279
2993+219984981+220552669+220997086+221262252+221454506+221577048+221684790
2980+221779333+221884817+222019223+222020913+221783158+221466050+221219543
2966+220855173+220296930+219824586+219379600+218710182+218132105+218057609
2953+218188600+218105370+218017088+218162505+218237233+217910270+217495809
2939+217439972+217445148+217180782+216891317+216699313+216403213+215874658
2926+215325879+214804902+213976174+213054628+212368365+211645191+210917197
2912+210476214+210274853+210225847+210246427+210251853+210285508+210324037
2899+210324979+210299169+210147793+209851461+209552266+209401032+209520461
2885+209864607+210146832+210112981+210032775+210265585+210517962+210506667
2872+210375373+210293833+210343995+210374928+210201281+209904932+209647752
2858+209390217+208951866+208386935+207861725+207399022+207062916+206900405
2845+206792840+206671099+206670547+206870147+207102762+207210290+207268600
2831+207432552+207614880+207585334+207372980+207134122+206910063+206793552
2818+206840726+206903873+206886832+206844479+206713363+206407195+206231556
2804+206506150+206986481+207309014+207435167+207453595+207398363+207382176
2791+207623774+207976867+208013137+207733473+207493263+207421363+207417592
2777+207427625+207377445+207223009+207016863+206725370+206428327+206342002
2764+206430782+206518940+206531053+206447645+206373771+206428968+206513354
2750+206568693+206683070+206785672+206775639+206707404+206629795+206585076
2737+206629670+206694988+206690932+206694952+206736719+206641268+206390723
2723+206220154+206230542+206325388+206378378+206340081+206302993+206367403
2710+206492115+206574723+206575826+206494321+206436866+206493805+206497541
2696+206415982+206449958+206647067+206909939+207093352+207166710+207208583
2683+207199742+207143727+207125477+207104149+206999644+206864490+206692213
2669+206468777+206246907+206016605+205870423+205821683+205673598+205407364
2656+205178538+205036305+204908569+204745612+204526641+204273642+204054155
2642+203877786+203791265+203804731+203752843+203586649+203405140+203110214
2629+202608786+202149961+201888903+201603992+201256574+201133142+201180868
2615+201006865+200583100+200211810+199990242+199822589+199651788+199395462
2602+199042120+198742587+198581676+198583277+198707972+198821157+198845616
2588+198714055+198493305+198413419+198455719+198412049+198287106+198180413
2575+198069594+197944046+197840910+197823834+197933835+197990010+197783918
2561+197411293+197067788+196797997+196587155+196467726+196455665+196377914
2548+196096862+195785091+195511920+195222811+195084331+195134582+195080382
2534+194772951+194513138+194499299+194478469+194333141+194188880+194044369
2521+193867183+193710132+193579141+193439237+193324202+193252908+193193513
2507+193079332+192880781+192725634+192700268+192745468+192791628+192826243
2494+192892361+193012199+193202389+193467343+193739802+193930561+194065555
2480+194287479+194535765+194588969+194508104+194491294+194519969+194543538
2467+194611524+194722504+194843854+194956701+195032176+195058467+195048488
2453+195009265+195022321+195215624+195458218+195589600+195741475+195926720
2440+196002906+196018986+196133524+196365124+196503071+196427204+196306690
2426+196261864+196252045+196296106+196463812+196683922+196798352+196826689
2413+196925982+197106602+197210057+197188249+197199758+197346438+197568006
2399+197774365+197936877+198088449+198260975+198479253+198722255+198916181
2386+198965383+198634240+197557778+195537552+192746197+189553809+186250015
2372+182947342+179591909+176173952+173010879+170532931+168923823+168516690
2359+169733856+172499010+176490988+181509373+186332854+188514987+186947788
2345+183184368+180218654+179219392+179580205+180513011+181369257+181927624
2332+182485849+183612580+185283039+186978472+188565042+190293811+192275596
2318+194291606+195987839+197220054+198267219+199414496+200528348+201437763
2305+202219779+202929985+203500537+203941450+204326650+204610388+204765837
2291+204931213+205219006+205550824+205786410+205885542+205874941+205819780
2278+205773513+205738062+205730484+205777302+205829973+205800391+205759692
2264+205829261+205949544+206040619+206127816+206240752+206365607+206505065
2251+206631058+206684120+206720941+206842344+207040823+207182683+207209988
2237+207256450+207327407+207325308+207315436+207291066+207215911+207245795
2224+207390679+207485329+207512474+207524214+207510268+207455641+207415351
2210+207445146+207521724+207638734+207787691+207880740+207915551+207957246
2197+207904007+207790928+207866741+208063032+208201210+208313862+208412479
2183+208537226+208741860+208923725+208976467+208929453+208843163+208755308
2170+208802339+209040415+209226229+209234127+209221302+209266839+209365741
2156+209484085+209530084+209510695+209534905+209638022+209758074+209848277
2143+209916868+209976440+209980478+209973736+210116148+210333340+210445778
2129+210472140+210465096+210437969+210442914+210540464+210690008+210788447
2116+210851399+210971077+211133553+211241456+211308837+211421809+211556945
2102+211652645+211711861+211785770+211950755+212238050+212615619+213000304
2089+213264438+213439099+213714903+214128671+214585540+215068254+215619684
2075+216226435+216878207+217675343+218632483+219645656+220750010+222000279
2062+223331448+224806399+226537123+228440552+230465723+232780163+235547291
2048+238688289+242005317+245436989+249093681+253050261+257129401+261089770
2035+264812081+268226126+271247801+273746330+275687505+277118430+277935062
2021+278012316+277554006+276957199+276256456+275172487+273681990+272001499
2008+270271735+268552537+266828216+264995885+263112593+261406611+259831852
1994+258089743+256361419+255194291+254497996+253786544+252918042+252007596
1981+251154908+250395482+249755628+249210780+248762005+248319562+247702121
1967+247239525+247350753+247615208+247571841+247464561+247575986+247857820
1954+248159150+248376004+248603495+248908934+249076106+249160671+249837382
1940+251178406+252393152+253261156+254032820+254833354+255680208+256526350
1927+257171754+257454442+257854460+258571835+259237606+260263942+261642054
1913+262526778+262932826+263422336+264142841+264889548+265528834+266010534
1900+266288384+266350304+266419250+266748258+266895259+266878485+267613043
1886+268831436+269748588+270419394+271032939+271653049+272283315+272786148
1873+272672162+271664060+271076858+272480122+274727146+276233972+276984877
1859+277487461+277968201+278375139+278657026+278721739+278330544+277217990
1846+275669610+275442048+276975503+277997249+277887230+277543671+276921356
1832+275217385+273242981+272767915+273070882+273333594+273858590+274026527
1819+273602442+273150341+272597701+271446778+270212661+269846689+269938138
1805+269550447+268419535+267109712+266696548+266972584+266358220+264709569
1792+264503085+266494707+267980793+268153444+267928034+267683341+267822195
1778+268363290+267875915+265761359+264229736+265709204+268543411+270665865
1765+271275142+270856749+271114177+271951301+272698827+273404319+272936351
1751+271354547+271069512+272832184+274799899+275761824+276012013+276815855
1738+277603404+276596368+276180377+279252677+282736397+285369475+287022217
1724+287731587+287690051+285947622+283243926+283837816+288133010+292035194
1711+294140642+294321991+293439526+293209757+292817477+291463219+292035194
1697+295054379+299835347+304824648+307176835+307736447+306961848+304535486
1684+305293542+311252008+316042830+317829463+318359049+319951614+321461002
1670+322693643+326726694+331368524+333707369+335997119+339869864+342854594
1657+342644517+339641928+340984891+347775483+350533130+352582243+359018532
1643+365421593+368595338+368741734+366832293+367873677+374251016+379220431
1630+381078145+382188191+383579679+385441200+388871876+391895775+392959821
1616+395752155+401510577+406188409+409296873+412686707+417138454+421827244
1603+426374192+431133423+436064273+440868116+445859410+451439061+457257998
1589+462970776+468609911+474449801+480920742+487856235+493405433+497216240
1576+503589239+512037892+517666176+522942861+531359317+540467479+548011359
1562+552365521+553952038+562489772+579167750+593893168+606454704+617546341
1549+628088470+637051517+643822720+649356087+657493484+674407438+690602896
1535+700735615+710560743+722230919+732140433+740834952+749795438+757836352
1522+767320518+779790232+791990208+804106580+815892308+825384016+832214062
1508+837929010+849698016+866900564+879214383+886374219+890790425+897139055
1495+906785235+913349669+915203825+918676196+928217782+938412831+944710302
1481+947771342+949640155+951769173+953853151+954477938+956544057+962927978
1468+968283322+968942975+968237144+968724324+967445860+962498716+959943853
1454+962760699+964568891+962904711+959369228+957904986+957592343+955074550
1441+951114430+946393052+939072412+931526504+927457094+924293737+921599130
1427+920128129+918268565+918172012+920739825+924507336+931700471+938882862
1414+942221112+945913628+951438101+954543896+954485338+955467737+960704969
1400+966731278+968887760+969586831+972937319+977501948+980000103+980546552
1387+980600201+980109251+978091800+975388371+974990203+977404612+981534145
1373+987596601+992692951+993199128+992328224+994456672+996846961+996565767
1360+995172535+992342313+988183109+986218524+987542881+989274940+989238865
1346+986611498+981814485+976424063+971419001+968551353+968382580+968058837
1333+966540164+965829851+966418849+966687164+965836824+965364942+968045745
1319+973894530+979064736+980463375+979325082+979622000+982339375+985965507
1306+990809195+995191533+996724508+997984400+1000477361+1001459404+1000865354
1292+1002119057+1006370047+1011339177+1016019144+1022501824+1030798958
1281+1037703144+1041293201+1042552525+1044190449+1047051908+1049441769
1269+1051400875+1054312993+1056873478+1056496727+1054538190+1054150055
1258+1055930426+1059598039+1063731201+1066187448+1066681813+1066656270
1246+1067451823+1068222615+1067147789+1065460343+1066686510+1070342454
1234+1072164805+1071755893+1072298927+1073741823+1073430176+1072440804
1223+1072868287+1072526400+1070110497+1067812067+1067081689+1066670216
1211+1064362891+1061755588+1062581950+1064909198+1064509891+1062989866
1200+1062538192+1062556691+1063612235+1065051218+1064700437+1062239281
1188+1058512612+1055102143+1053376986+1052331617+1050277879+1048144948
1177+1046463977+1044698832+1044470504+1044699117+1043494082+1043238432
1165+1043326021+1041573470+1039629947+1038019131+1035435095+1032685702
1153+1032070164+1033157441+1034247707+1035915729+1036662471+1035128998
1142+1034692551+1035737279+1035011882+1032860096+1032079912+1033588410
1130+1034553804+1032913602+1031568754+1032386435+1033478267+1033773121
1119+1033032711+1029809230+1024695590+1020848531+1019032370+1016776702
1107+1012903174+1010773019+1013300560+1018418967+1023312818+1026827311
1096+1027850053+1026844388+1026788320+1029699514+1034224084+1038095335
1084+1040015947+1039682315+1040378539+1045986901+1052656854+1053717876
1072+1049390753+1045305832+1046590058+1051924626+1057396589+1061950047
1061+1062505248+1056667634+1050430572+1051163368+1056017445+1058275034
1049+1058455832+1058528692+1057307079+1053074019+1048200091+1048463070
1038+1053351371+1055148392+1050566401+1046129775+1046754135+1049032430
1026+1048340688+1044172946+1040277717+1039857491+1041231014+1041295478
1015+1040630632+1040632197+1038892098+1036696980+1038413955+1040260996
1003+1038072922+1036566416+1038637586+1040722987+1041364709+1043266964
991+1048203293+1054060616+1056670623+1054605002+1050514958+1049188253
980+1051530443+1053314799+1053982918+1055965575+1057329350+1054988655
968+1050971613+1051442001+1059580109+1068995613+1070251308+1066649937
957+1067259641+1069633706+1068951926+1069781205+1072625658+1072182095
945+1070669612+1071213286+1071748707+1071858494+1072027339+1071328197
934+1069503996+1067724834+1067143236+1067876531+1069248417+1070955928
922+1072706487+1071865040+1067437237+1064327173+1066663456+1071550192
910+1072620179+1068660273+1065445828+1066655487+1069627303+1071983722
899+1073248026+1072657748+1070036997+1064985188+1059644644+1058931200
887+1062929102+1066615073+1067245624+1066577647+1067137686+1066575868
876+1060294620+1052830252+1051724333+1055309267+1056864797+1054873673
864+1052769203+1050622825+1047771541+1045121974+1041545507+1038895584
853+1040352426+1043736000+1043330432+1037342260+1031526916+1029971671
841+1030240911+1029182664+1026425799+1025078816+1026529041+1027545735
829+1028192438+1030729656+1032911681+1031799216+1027463341+1023060725
818+1022274066+1026070394+1030575398+1029707554+1025050071+1023266071
806+1024926693+1025897636+1025073978+1023557866+1020033696+1015337933
795+1016240001+1026017883+1033251291+1027590063+1017826980+1010130656
783+1001660623+993931711+990054199+990709084+993359718+993728927+991216328
770+989807158+991402463+991141049+986474814+981998770+979278762+976350136
756+973830137+972557508+970462146+965990584+962649630+963174663+963652521
743+960915366+956432490+952830266+951320914+949695654+946064044+940821405
729+934769694+929511117+925687111+922082183+917446615+912800231+910552105
716+910779223+912250651+913430569+913786472+915315534+916521564+915014631
702+915558661+920413165+923556955+922779261+921550747+919684352+916778566
689+916974306+921619337+925744673+925282610+922342956+920860926+921560281
675+922142306+919026692+911931747+907342357+915850883+930237367+936723392
662+936853245+937502509+937612510+933054285+930221856+932497589+934254196
648+935277009+939019261+939215072+929102703+919689333+923434787+931387401
635+925374468+911163232+912070850+926118436+926793101+910753466+902668793
621+912795108+923755256+918354731+908782762+910493831+921903021+931463321
608+929010561+922826435+929738235+942599072+937883600
##END=
